Wavelength(nm),k
206.63,2.28
207.48,2.58
208.33,2.73
209.19,2.79
210.06,2.8
210.93,2.83
211.82,2.86
212.71,2.89
213.60,2.92
214.51,2.96
215.42,3
216.34,3.05
217.27,3.09
218.20,3.13
219.14,3.18
220.10,3.23
221.06,3.28
222.03,3.34
223.00,3.39
223.99,3.45
224.98,3.53
225.99,3.6
227.00,3.68
228.02,3.76
229.05,3.84
230.09,3.93
231.14,4.01
232.20,4.08
233.27,4.14
234.35,4.18
235.44,4.2
236.54,4.2
237.65,4.19
238.76,4.16
239.90,4.13
241.04,4.1
242.19,4.04
243.35,3.96
244.53,3.88
245.71,3.79
246.91,3.7
248.12,3.62
249.34,3.55
250.57,3.47
251.82,3.41
253.08,3.36
254.35,3.31
255.63,3.25
256.92,3.18
258.23,3.1
259.56,3.01
260.89,2.92
262.24,2.82
263.61,2.72
264.99,2.63
266.38,2.54
267.79,2.46
269.21,2.39
270.65,2.32
272.10,2.27
273.57,2.23
275.06,2.19
276.56,2.16
278.07,2.14
279.61,2.11
281.16,2.1
282.73,2.08
284.32,2.08
285.92,2.07
287.54,2.06
289.18,2.06
290.84,2.06
292.52,2.06
294.22,2.06
295.94,2.06
297.68,2.07
299.44,2.08
301.22,2.09
303.02,2.11
304.84,2.12
306.69,2.14
308.55,2.16
310.44,2.18
312.36,2.2
314.30,2.23
316.26,2.27
318.24,2.31
320.26,2.36
322.29,2.42
324.36,2.49
326.45,2.57
328.56,2.63
330.71,2.66
332.88,2.61
335.08,2.45
337.31,2.2
339.57,1.9
341.86,1.62
344.18,1.39
346.54,1.2
348.92,1.05
351.34,0.93
353.80,0.83
356.29,0.75
358.81,0.67
361.37,0.63
363.96,0.58
366.60,0.53
369.27,0.5
371.98,0.47
374.73,0.44
377.52,0.41
380.36,0.39
383.23,0.36
386.15,0.35
389.12,0.33
392.13,0.31
395.19,0.3
398.29,0.28
401.45,0.27
404.66,0.25
407.91,0.24
411.22,0.23
414.59,0.22
418.01,0.21
421.49,0.2
425.02,0.19
428.62,0.18
432.27,0.18
435.99,0.15
439.78,0.14
443.63,0.11
447.54,0.1
451.53,0.02
455.59,0.04
459.73,0.07
463.94,0.01
468.22,0.01
472.59,0.01
477.04,0.01
481.57,0
486.19,0
490.90,0
495.71,0
500.60,0
505.60,0
510.69,0
515.89,0
521.20,0
526.62,0
532.15,0
537.80,0
543.57,0
549.46,0
555.48,0
561.64,0
567.94,0
574.37,0
580.96,0
587.70,0
594.59,0
601.65,0
608.88,0
616.29,0
623.88,0
631.65,0
639.63,0
647.81,0
656.19,0
664.80,0
673.64,0
682.72,0
692.04,0
701.63,0
711.48,0
721.61,0
732.03,0
742.77,0
753.82,0
765.20,0
776.93,0
789.03,0
801.51,0
814.39,0
827.70,0
841.44,0
855.65,0
870.35,0
885.56,0
901.31,0
917.63,0
934.56,0
952.12,0
970.35,0
989.30,0
1009.00,0
1029.50,0
1050.85,0
1073.10,0
1096.32,0
1120.57,0
1145.91,0
1172.42,0
1200.19,0
